#Frame 	 Voronoi density(m^(-2))		Voronoi velocity(m/s)
0	1.139	0.064
1	1.137	0.103
2	1.143	0.158
3	1.148	0.221
4	1.161	0.297
5	1.178	0.229
6	1.195	0.304
7	1.217	0.388
8	1.245	0.478
9	1.278	0.628
10	1.308	0.778
11	1.318	0.913
12	1.319	1.031
13	1.334	1.122
14	1.340	1.186
15	1.365	1.231
16	1.409	1.262
17	1.470	1.286
18	1.537	1.309
19	1.614	1.298
20	1.688	1.283
21	1.760	1.263
22	1.825	1.251
23	1.882	1.244
24	1.927	1.244
25	1.949	1.250
26	1.979	1.251
27	1.996	1.259
28	2.016	1.270
29	2.030	1.275
30	2.031	1.274
31	2.028	1.274
32	2.016	1.275
33	2.006	1.282
34	1.996	1.286
35	1.992	1.286
36	1.995	1.287
37	1.997	1.280
38	2.013	1.277
39	2.019	1.271
40	2.005	1.267
41	1.980	1.268
42	1.957	1.265
43	1.932	1.259
44	1.904	1.250
45	1.883	1.242
46	1.871	1.227
47	1.853	1.213
48	1.821	1.203
49	1.813	1.193
50	1.817	1.181
51	1.837	1.166
52	1.862	1.154
53	1.892	1.147
54	1.913	1.140
55	1.930	1.129
56	1.962	1.116
57	1.995	1.099
58	2.021	1.085
59	2.044	1.070
60	2.062	1.059
61	2.082	1.051
62	2.095	1.048
63	2.126	1.041
64	2.160	1.032
65	2.190	1.023
66	2.220	1.014
67	2.260	1.004
68	2.292	0.998
69	2.325	0.997
70	2.365	1.002
71	2.392	1.007
72	2.421	1.013
73	2.430	1.018
74	2.459	1.021
75	2.514	1.015
76	2.571	1.005
77	2.625	0.996
78	2.663	0.991
79	2.683	0.989
80	2.692	0.988
81	2.697	0.990
82	2.712	0.991
83	2.720	0.993
84	2.737	0.993
85	2.761	0.989
86	2.793	0.984
87	2.817	0.977
88	2.849	0.969
89	2.869	0.963
90	2.899	0.959
91	2.926	0.954
92	2.935	0.951
93	2.940	0.948
94	2.951	0.946
95	2.971	0.946
96	2.989	0.948
97	2.997	0.950
98	2.982	0.950
99	2.965	0.949
100	2.963	0.946
101	2.952	0.944
102	2.922	0.938
103	2.904	0.932
104	2.880	0.924
105	2.843	0.915
106	2.832	0.906
107	2.820	0.898
108	2.816	0.892
109	2.801	0.885
110	2.790	0.876
111	2.777	0.867
112	2.773	0.860
113	2.785	0.847
114	2.797	0.836
115	2.825	0.827
116	2.829	0.823
117	2.836	0.820
118	2.840	0.819
119	2.839	0.816
120	2.841	0.817
121	2.856	0.816
122	2.868	0.819
123	2.883	0.819
124	2.907	0.818
125	2.921	0.814
126	2.924	0.812
127	2.912	0.812
128	2.924	0.816
129	2.930	0.820
130	2.937	0.821
131	2.929	0.823
132	2.914	0.823
133	2.894	0.821
134	2.882	0.814
135	2.877	0.805
136	2.882	0.800
137	2.883	0.799
138	2.897	0.801
139	2.923	0.800
140	2.942	0.801
141	2.961	0.802
142	2.961	0.805
143	2.949	0.810
144	2.943	0.818
145	2.939	0.828
146	2.931	0.832
147	2.906	0.840
148	2.901	0.850
149	2.898	0.855
150	2.885	0.853
151	2.890	0.849
152	2.883	0.843
153	2.878	0.837
154	2.887	0.830
155	2.891	0.824
156	2.895	0.820
157	2.906	0.817
158	2.916	0.819
159	2.925	0.823
160	2.947	0.828
161	2.963	0.831
162	2.986	0.837
163	2.970	0.842
164	2.950	0.839
165	2.911	0.834
166	2.892	0.823
167	2.868	0.811
168	2.859	0.805
169	2.823	0.803
170	2.815	0.803
171	2.807	0.802
172	2.819	0.798
173	2.855	0.796
174	2.899	0.797
175	2.946	0.801
176	2.996	0.809
177	3.029	0.817
178	3.064	0.825
179	3.096	0.828
180	3.119	0.829
181	3.140	0.830
182	3.153	0.831
183	3.164	0.834
184	3.158	0.836
185	3.136	0.834
186	3.101	0.834
187	3.047	0.833
188	3.007	0.831
189	2.979	0.828
190	2.958	0.825
191	2.945	0.825
192	2.924	0.829
193	2.898	0.833
194	2.875	0.834
195	2.858	0.835
196	2.853	0.828
197	2.839	0.822
198	2.836	0.814
199	2.835	0.807
200	2.838	0.799
201	2.849	0.792
202	2.876	0.784
203	2.901	0.777
204	2.914	0.773
205	2.924	0.774
206	2.950	0.776
207	2.967	0.777
208	2.973	0.778
209	3.008	0.774
210	3.020	0.772
211	3.028	0.770
212	3.017	0.765
213	3.016	0.756
214	3.010	0.749
215	3.012	0.743
216	3.007	0.742
217	3.017	0.743
218	3.015	0.743
219	3.017	0.742
220	3.008	0.743
221	2.971	0.746
222	2.927	0.752
223	2.882	0.756
224	2.866	0.762
225	2.839	0.761
226	2.835	0.763
227	2.848	0.770
228	2.844	0.777
229	2.853	0.778
230	2.852	0.782
231	2.831	0.783
232	2.801	0.783
233	2.746	0.782
234	2.705	0.776
235	2.659	0.772
236	2.637	0.763
237	2.618	0.751
238	2.599	0.741
239	2.595	0.733
240	2.579	0.726
241	2.568	0.724
242	2.575	0.725
243	2.564	0.728
244	2.574	0.729
245	2.575	0.729
246	2.570	0.734
247	2.562	0.738
248	2.556	0.743
249	2.558	0.751
250	2.579	0.760
251	2.600	0.768
252	2.629	0.774
253	2.668	0.772
254	2.706	0.768
255	2.739	0.768
256	2.756	0.766
257	2.763	0.764
258	2.765	0.758
259	2.789	0.751
260	2.797	0.741
261	2.804	0.732
262	2.808	0.728
263	2.811	0.732
264	2.809	0.742
265	2.815	0.749
266	2.818	0.751
267	2.826	0.751
268	2.837	0.753
269	2.844	0.753
270	2.843	0.752
271	2.839	0.752
272	2.823	0.755
273	2.820	0.757
274	2.821	0.756
275	2.851	0.753
276	2.891	0.752
277	2.932	0.751
278	2.959	0.751
279	3.005	0.754
280	3.040	0.752
281	3.099	0.747
282	3.155	0.743
283	3.196	0.743
284	3.231	0.743
285	3.279	0.743
286	3.300	0.748
287	3.332	0.750
288	3.349	0.749
289	3.362	0.743
290	3.363	0.736
291	3.372	0.728
292	3.370	0.720
293	3.359	0.715
294	3.344	0.710
295	3.318	0.706
296	3.275	0.701
297	3.245	0.700
298	3.218	0.702
299	3.202	0.706
300	3.176	0.712
301	3.152	0.717
302	3.139	0.720
303	3.121	0.722
304	3.125	0.722
305	3.129	0.722
306	3.130	0.719
307	3.137	0.715
308	3.132	0.713
309	3.128	0.714
310	3.129	0.714
311	3.127	0.715
312	3.127	0.714
313	3.139	0.714
314	3.139	0.713
315	3.143	0.712
316	3.149	0.711
317	3.147	0.704
318	3.145	0.694
319	3.148	0.684
320	3.164	0.672
321	3.175	0.661
322	3.181	0.658
323	3.188	0.654
324	3.209	0.649
325	3.227	0.645
326	3.250	0.643
327	3.277	0.642
328	3.286	0.645
329	3.296	0.650
330	3.284	0.652
331	3.287	0.655
332	3.283	0.655
333	3.287	0.657
334	3.284	0.663
335	3.289	0.672
336	3.292	0.679
337	3.289	0.686
338	3.293	0.688
339	3.286	0.687
340	3.299	0.681
341	3.301	0.673
342	3.313	0.666
343	3.316	0.664
344	3.323	0.662
345	3.319	0.663
346	3.300	0.663
347	3.278	0.663
348	3.278	0.664
349	3.287	0.663
350	3.314	0.663
351	3.337	0.659
352	3.369	0.655
353	3.412	0.649
354	3.411	0.647
355	3.415	0.646
356	3.432	0.649
357	3.424	0.653
358	3.420	0.660
359	3.422	0.667
360	3.411	0.672
361	3.390	0.676
362	3.370	0.681
363	3.369	0.686
364	3.385	0.690
365	3.435	0.692
366	3.476	0.695
367	3.540	0.701
368	3.594	0.705
369	3.643	0.709
370	3.677	0.713
371	3.696	0.715
372	3.706	0.713
373	3.700	0.710
374	3.688	0.704
375	3.668	0.700
376	3.662	0.696
377	3.655	0.692
378	3.663	0.690
379	3.654	0.687
380	3.668	0.687
381	3.651	0.688
382	3.645	0.686
383	3.637	0.683
384	3.625	0.680
385	3.631	0.678
386	3.634	0.677
387	3.636	0.678
388	3.628	0.680
389	3.618	0.683
390	3.595	0.685
391	3.559	0.684
392	3.509	0.681
393	3.449	0.677
394	3.404	0.670
395	3.366	0.664
396	3.329	0.659
397	3.301	0.658
398	3.281	0.662
399	3.263	0.666
400	3.241	0.671
401	3.232	0.676
402	3.232	0.678
403	3.235	0.680
404	3.209	0.682
405	3.182	0.683
406	3.147	0.687
407	3.119	0.688
408	3.107	0.684
409	3.106	0.684
410	3.120	0.682
411	3.147	0.692
412	3.167	0.698
413	3.171	0.705
414	3.198	0.710
415	3.223	0.714
416	3.261	0.715
417	3.292	0.712
418	3.327	0.708
419	3.349	0.702
420	3.374	0.696
421	3.383	0.691
422	3.393	0.690
423	3.387	0.688
424	3.377	0.683
425	3.365	0.679
426	3.379	0.676
427	3.398	0.676
428	3.457	0.679
429	3.513	0.683
430	3.594	0.694
431	3.650	0.702
432	3.697	0.705
433	3.724	0.701
434	3.724	0.694
435	3.740	0.687
436	3.755	0.685
437	3.756	0.686
438	3.748	0.688
439	3.750	0.689
440	3.749	0.688
441	3.729	0.689
442	3.693	0.695
443	3.656	0.701
444	3.609	0.705
445	3.581	0.706
446	3.534	0.702
447	3.502	0.699
448	3.460	0.689
449	3.403	0.680
450	3.350	0.672
451	3.297	0.662
452	3.272	0.657
453	3.255	0.655
454	3.256	0.656
455	3.246	0.659
456	3.250	0.665
457	3.239	0.673
458	3.241	0.681
459	3.253	0.690
460	3.261	0.700
461	3.264	0.710
462	3.271	0.717
463	3.272	0.723
464	3.279	0.723
465	3.273	0.724
466	3.272	0.722
467	3.254	0.720
468	3.242	0.717
469	3.214	0.711
470	3.185	0.707
471	3.144	0.701
472	3.088	0.697
473	3.042	0.692
474	2.990	0.686
475	2.941	0.680
476	2.873	0.672
477	2.834	0.665
478	2.814	0.660
479	2.774	0.655
480	2.751	0.651
481	2.758	0.651
482	2.762	0.650
483	2.774	0.649
484	2.788	0.650
485	2.784	0.654
486	2.779	0.661
487	2.790	0.671
488	2.800	0.683
489	2.827	0.692
490	2.851	0.703
491	2.856	0.711
492	2.855	0.716
493	2.858	0.719
494	2.849	0.719
495	2.846	0.716
496	2.854	0.712
497	2.858	0.707
498	2.864	0.702
499	2.874	0.703
500	2.888	0.704
501	2.896	0.708
502	2.901	0.714
503	2.899	0.721
504	2.902	0.729
505	2.902	0.736
506	2.902	0.744
507	2.898	0.752
508	2.890	0.757
509	2.889	0.753
510	2.877	0.751
511	2.872	0.749
512	2.845	0.746
513	2.828	0.742
514	2.822	0.736
515	2.805	0.732
516	2.793	0.728
517	2.784	0.724
518	2.766	0.722
519	2.754	0.726
520	2.755	0.725
521	2.751	0.727
522	2.747	0.725
523	2.743	0.721
524	2.733	0.719
525	2.721	0.715
526	2.702	0.709
527	2.679	0.710
528	2.650	0.708
529	2.634	0.703
530	2.622	0.697
531	2.605	0.696
532	2.593	0.696
533	2.605	0.697
534	2.600	0.699
535	2.607	0.698
536	2.625	0.698
537	2.664	0.696
538	2.705	0.694
539	2.742	0.691
540	2.783	0.684
541	2.806	0.675
542	2.839	0.662
543	2.839	0.651
544	2.843	0.644
545	2.858	0.643
546	2.872	0.642
547	2.895	0.644
548	2.923	0.649
549	2.954	0.652
550	2.975	0.657
551	3.010	0.661
552	3.033	0.669
553	3.053	0.680
554	3.085	0.691
555	3.113	0.701
556	3.141	0.703
557	3.163	0.702
558	3.193	0.699
559	3.217	0.694
560	3.230	0.690
561	3.259	0.687
562	3.283	0.687
563	3.307	0.691
564	3.340	0.696
565	3.372	0.701
566	3.409	0.705
567	3.438	0.708
568	3.466	0.708
569	3.466	0.707
570	3.469	0.707
571	3.431	0.708
572	3.394	0.710
573	3.368	0.711
574	3.333	0.708
575	3.298	0.702
576	3.272	0.697
577	3.245	0.693
578	3.236	0.688
579	3.216	0.685
580	3.195	0.682
581	3.183	0.683
582	3.184	0.679
583	3.192	0.679
584	3.185	0.678
585	3.192	0.678
586	3.176	0.679
587	3.169	0.680
588	3.163	0.681
589	3.147	0.681
590	3.126	0.679
591	3.105	0.677
592	3.100	0.680
593	3.095	0.684
594	3.093	0.685
595	3.112	0.684
596	3.126	0.685
597	3.132	0.684
598	3.131	0.683
599	3.133	0.688
600	3.140	0.692
601	3.145	0.692
602	3.146	0.689
603	3.150	0.685
604	3.136	0.682
605	3.122	0.678
606	3.112	0.677
607	3.104	0.676
608	3.112	0.678
609	3.118	0.681
610	3.141	0.684
611	3.148	0.689
612	3.168	0.695
613	3.162	0.703
614	3.145	0.710
615	3.118	0.714
616	3.099	0.716
617	3.076	0.715
618	3.077	0.713
619	3.081	0.710
620	3.080	0.709
621	3.082	0.714
622	3.074	0.722
623	3.056	0.729
624	3.042	0.737
625	3.022	0.741
626	2.986	0.742
627	2.954	0.741
628	2.937	0.737
629	2.929	0.732
630	2.938	0.727
631	2.945	0.724
632	2.952	0.723
633	2.943	0.721
634	2.921	0.721
635	2.891	0.721
636	2.868	0.721
637	2.842	0.720
638	2.846	0.719
639	2.841	0.721
640	2.844	0.724
641	2.846	0.726
642	2.840	0.726
643	2.843	0.725
644	2.843	0.723
645	2.845	0.718
646	2.848	0.712
647	2.840	0.703
648	2.828	0.692
649	2.818	0.679
650	2.798	0.672
651	2.766	0.672
652	2.756	0.680
653	2.734	0.691
654	2.733	0.706
655	2.726	0.715
656	2.719	0.718
657	2.717	0.716
658	2.705	0.706
659	2.681	0.696
660	2.647	0.687
661	2.609	0.675
662	2.570	0.663
663	2.528	0.652
664	2.501	0.645
665	2.480	0.640
666	2.467	0.640
667	2.458	0.644
668	2.448	0.652
669	2.452	0.659
670	2.460	0.662
671	2.475	0.663
672	2.501	0.663
673	2.514	0.668
674	2.524	0.678
675	2.528	0.686
676	2.528	0.693
677	2.524	0.700
678	2.516	0.705
679	2.500	0.709
680	2.483	0.713
681	2.460	0.717
682	2.426	0.717
683	2.420	0.713
684	2.412	0.715
685	2.397	0.714
686	2.390	0.713
687	2.387	0.713
688	2.384	0.710
689	2.374	0.707
690	2.378	0.703
691	2.380	0.700
692	2.382	0.695
693	2.389	0.691
694	2.391	0.690
695	2.404	0.695
696	2.402	0.705
697	2.396	0.713
698	2.396	0.723
699	2.392	0.730
700	2.396	0.739
701	2.390	0.749
702	2.386	0.757
703	2.380	0.762
704	2.378	0.764
705	2.363	0.764
706	2.353	0.761
707	2.340	0.759
708	2.333	0.754
709	2.321	0.752
710	2.311	0.749
711	2.284	0.745
712	2.263	0.740
713	2.229	0.741
714	2.184	0.738
715	2.147	0.736
716	2.109	0.735
717	2.075	0.730
718	2.041	0.724
719	2.012	0.721
720	1.992	0.717
721	1.970	0.719
722	1.955	0.720
723	1.957	0.720
724	1.961	0.724
725	1.970	0.726
726	1.993	0.725
727	2.017	0.725
728	2.040	0.724
729	2.058	0.721
730	2.070	0.722
731	2.085	0.722
732	2.086	0.731
733	2.075	0.740
734	2.066	0.746
735	2.048	0.747
736	2.022	0.746
737	2.007	0.748
738	1.987	0.748
739	1.962	0.747
740	1.940	0.747
741	1.919	0.743
742	1.904	0.735
743	1.872	0.729
744	1.848	0.731
745	1.812	0.731
746	1.785	0.732
747	1.757	0.723
748	1.735	0.713
749	1.714	0.708
750	1.700	0.703
751	1.695	0.705
752	1.679	0.713
753	1.676	0.722
754	1.675	0.733
755	1.683	0.744
756	1.679	0.752
757	1.677	0.761
758	1.683	0.768
759	1.681	0.770
760	1.681	0.774
761	1.679	0.771
762	1.669	0.766
763	1.650	0.759
764	1.630	0.749
765	1.609	0.741
766	1.580	0.739
767	1.534	0.737
768	1.494	0.737
769	1.469	0.739
770	1.443	0.737
771	1.424	0.739
772	1.416	0.737
773	1.408	0.737
774	1.402	0.737
775	1.396	0.731
776	1.395	0.727
777	1.387	0.729
778	1.388	0.736
779	1.372	0.741
780	1.353	0.747
781	1.327	0.748
782	1.320	0.751
783	1.304	0.753
784	1.294	0.757
785	1.282	0.761
786	1.266	0.763
787	1.249	0.765
788	1.226	0.766
789	1.212	0.766
790	1.194	0.760
791	1.175	0.752
792	1.153	0.743
793	1.133	0.740
794	1.106	0.739
795	1.079	0.743
796	1.062	0.747
797	1.049	0.751
798	1.039	0.751
799	1.033	0.747
800	1.026	0.745
801	1.021	0.738
802	1.011	0.725
803	1.007	0.712
804	0.999	0.704
805	0.994	0.698
806	0.992	0.696
807	0.991	0.698
808	0.997	0.704
809	1.004	0.704
810	1.007	0.699
811	1.012	0.698
812	1.020	0.694
813	1.029	0.691
814	1.040	0.688
815	1.043	0.689
816	1.056	0.689
817	1.067	0.694
818	1.081	0.690
819	1.097	0.686
820	1.109	0.684
821	1.099	0.680
822	1.085	0.682
823	1.064	0.682
824	1.047	0.681
825	1.031	0.681
826	1.012	0.680
827	0.996	0.681
828	0.974	0.682
829	0.943	0.682
830	0.909	0.680
831	0.865	0.671
832	0.821	0.658
833	0.782	0.645
834	0.749	0.634
835	0.722	0.630
836	0.691	0.629
837	0.657	0.628
838	0.625	0.629
839	0.592	0.623
840	0.560	0.630
841	0.534	0.652
842	0.515	0.683
843	0.503	0.717
844	0.492	0.745
845	0.485	0.762
846	0.478	0.765
847	0.471	0.761
848	0.463	0.740
849	0.449	0.720
850	0.428	0.683
851	0.408	0.648
852	0.387	0.613
853	0.363	0.573
854	0.340	0.535
855	0.315	0.502
856	0.290	0.465
857	0.264	0.428
858	0.241	0.392
859	0.215	0.346
860	0.192	0.310
861	0.168	0.272
862	0.147	0.239
863	0.126	0.209
864	0.105	0.180
865	0.084	0.147
866	0.063	0.114
867	0.045	0.084
868	0.028	0.055
869	0.018	0.036
870	0.008	0.016
871	0.001	0.002
872	0.000	0.000
873	0.000	0.000
874	0.000	0.000
875	0.000	0.000
876	0.000	0.000
877	0.000	0.000
878	0.000	0.000
879	0.000	0.000
880	0.000	0.000
881	0.000	0.000
882	0.000	0.000
883	0.000	0.000
884	0.000	0.000
885	0.000	0.000
886	0.000	0.000
887	0.000	0.000
888	0.000	0.000
889	0.000	0.000
890	0.000	0.000
891	0.000	0.000
892	0.000	0.000
893	0.000	0.000
894	0.000	0.000
895	0.000	0.000
896	0.000	0.000
897	0.000	0.000
898	0.000	0.000
899	0.000	0.000
900	0.000	0.000
901	0.000	0.000
902	0.000	0.000
903	0.000	0.000
904	0.000	0.000
905	0.000	0.000
906	0.000	0.000
907	0.000	0.000
908	0.000	0.000
909	0.000	0.000
910	0.000	0.000
911	0.000	0.000
912	0.000	0.000
913	0.000	0.000
914	0.000	0.000
915	0.000	0.000
916	0.000	0.000
917	0.000	0.000
918	0.000	0.000
919	0.000	0.000
920	0.000	0.000
921	0.000	0.000
922	0.000	0.000
923	0.000	0.000
924	0.000	0.000
925	0.000	0.000
926	0.000	0.000
927	0.000	0.000
928	0.000	0.000
929	0.000	0.000
930	0.000	0.000
931	0.000	0.000
932	0.000	0.000
933	0.000	0.000
934	0.000	0.000
935	0.000	0.000
936	0.000	0.000
937	0.000	0.000
